Frecuencia,X,Y,R,Theta
5.000000000000000000e+02,1.496679999999999907e-04,3.822179999999999885e-06,1.497579999999999983e-04,1.302000000000000046e+00
1.510204081632653015e+03,1.465089999999999893e-04,1.259900000000000084e-05,1.471130000000000126e-04,4.926000000000000156e+00
2.520408163265306030e+03,1.448479999999999928e-04,2.194210000000000122e-05,1.464120000000000070e-04,8.586000000000000298e+00
3.530612244897959044e+03,1.427389999999999898e-04,3.074130000000000330e-05,1.459879999999999988e-04,1.215600000000000058e+01
4.540816326530612059e+03,1.406830000000000081e-04,4.012159999999999886e-05,1.462409999999999979e-04,1.592399999999999949e+01
5.551020408163265529e+03,1.387310000000000106e-04,4.952420000000000265e-05,1.473590000000000099e-04,1.964999999999999858e+01
6.561224489795918089e+03,1.370020000000000005e-04,5.960490000000000254e-05,1.493929999999999976e-04,2.350799999999999912e+01
7.571428571428570649e+03,1.334709999999999965e-04,7.014769999999999925e-05,1.507780000000000123e-04,2.772599999999999909e+01
8.581632653061224119e+03,1.303409999999999909e-04,8.080949999999999939e-05,1.533410000000000079e-04,3.180000000000000071e+01
9.591836734693877588e+03,1.273160000000000123e-04,9.159050000000000340e-05,1.568130000000000045e-04,3.573599999999999710e+01
1.060204081632653106e+04,1.250369999999999889e-04,1.025580000000000030e-04,1.617380000000000022e-04,3.934799999999999898e+01
1.161224489795918271e+04,1.224440000000000088e-04,1.138380000000000034e-04,1.672070000000000002e-04,4.291799999999999926e+01
1.262244897959183618e+04,1.198650000000000052e-04,1.252530000000000017e-04,1.733609999999999958e-04,4.625399999999999778e+01
1.363265306122448965e+04,1.178089999999999964e-04,1.366589999999999938e-04,1.804239999999999924e-04,4.923599999999999710e+01
1.464285714285714130e+04,1.150750000000000053e-04,1.485280000000000118e-04,1.879189999999999875e-04,5.222999999999999687e+01
1.565306122448979477e+04,1.126979999999999974e-04,1.603970000000000027e-04,1.960780000000000021e-04,5.491799999999999926e+01
1.666326530612244824e+04,1.104479999999999969e-04,1.724969999999999986e-04,2.048019999999999951e-04,5.736599999999999966e+01
1.767346938775509989e+04,1.078850000000000013e-04,1.847159999999999980e-04,2.139520000000000007e-04,5.971200000000000330e+01
1.868367346938775518e+04,1.056199999999999950e-04,1.969639999999999933e-04,2.234589999999999895e-04,6.179999999999999716e+01
1.969387755102040683e+04,1.028180000000000039e-04,2.098389999999999945e-04,2.335919999999999956e-04,6.390599999999999881e+01
2.070408163265306212e+04,1.001059999999999933e-04,2.221769999999999973e-04,2.439030000000000126e-04,6.572400000000000375e+01
2.171428571428571377e+04,9.700700000000000143e-05,2.356480000000000044e-04,2.547820000000000011e-04,6.762000000000000455e+01
2.272448979591836542e+04,9.492090000000000119e-05,2.487920000000000127e-04,2.663149999999999871e-04,6.911400000000000432e+01
2.373469387755102071e+04,9.262609999999999735e-05,2.625309999999999840e-04,2.783260000000000183e-04,7.057800000000000296e+01
2.474489795918367236e+04,9.065909999999999399e-05,2.762400000000000250e-04,2.907240000000000171e-04,7.183199999999999363e+01
2.575510204081632401e+04,9.059949999999999883e-05,2.891139999999999834e-04,3.029129999999999778e-04,7.259399999999999409e+01
2.676530612244897929e+04,8.887099999999999666e-05,3.023459999999999950e-04,3.150720000000000083e-04,7.353600000000000136e+01
2.777551020408163095e+04,8.794709999999999691e-05,3.160260000000000131e-04,3.280959999999999975e-04,7.444199999999999307e+01
2.878571428571428260e+04,9.200020000000000051e-05,3.252940000000000063e-04,3.380200000000000197e-04,7.421399999999999864e+01
2.979591836734693788e+04,9.030149999999999592e-05,3.389730000000000087e-04,3.508049999999999862e-04,7.508400000000000318e+01
3.080612244897958954e+04,8.913920000000000198e-05,3.521460000000000128e-04,3.632619999999999925e-04,7.579800000000000182e+01
3.181632653061224482e+04,8.839419999999999472e-05,3.651700000000000020e-04,3.757200000000000145e-04,7.639199999999999591e+01
3.282653061224489647e+04,8.699339999999999959e-05,3.786700000000000049e-04,3.885350000000000197e-04,7.705800000000000693e+01
3.383673469387755176e+04,8.553310000000000275e-05,3.922899999999999998e-04,4.014989999999999857e-04,7.769400000000000261e+01
3.484693877551019978e+04,8.469870000000000274e-05,4.054330000000000195e-04,4.141649999999999759e-04,7.819799999999999329e+01
3.585714285714285506e+04,8.356620000000000638e-05,4.189630000000000068e-04,4.271880000000000035e-04,7.871999999999999886e+01
3.686734693877551035e+04,8.240389999999999889e-05,4.324630000000000097e-04,4.402720000000000158e-04,7.920600000000000307e+01
3.787755102040815837e+04,8.130120000000000012e-05,4.461719999999999966e-04,4.535039999999999731e-04,7.966800000000000637e+01
3.888775510204081365e+04,8.046670000000000667e-05,4.595830000000000076e-04,4.666170000000000083e-04,8.006999999999999318e+01
3.989795918367346894e+04,7.960249999999999553e-05,4.731140000000000107e-04,4.797299999999999893e-04,8.044799999999999329e+01
4.090816326530612423e+04,7.876800000000000208e-05,4.864350000000000141e-04,4.927850000000000329e-04,8.079600000000000648e+01
4.191836734693877224e+04,7.808260000000000352e-05,4.998480000000000024e-04,5.059279999999999984e-04,8.112000000000000455e+01
4.292857142857142753e+04,7.730770000000000523e-05,5.132589999999999592e-04,5.191010000000000025e-04,8.142600000000000193e+01
4.393877551020408282e+04,7.647319999999999823e-05,5.268490000000000239e-04,5.323920000000000215e-04,8.173799999999999955e+01
4.494897959183673083e+04,7.599639999999999629e-05,5.402010000000000275e-04,5.455049999999999483e-04,8.198999999999999488e+01
4.595918367346938612e+04,7.516190000000000284e-05,5.536119999999999843e-04,5.586779999999999524e-04,8.226600000000000534e+01
4.696938775510204141e+04,7.474469999999999606e-05,5.672020000000000490e-04,5.720890000000000176e-04,8.248799999999999955e+01
4.797959183673468942e+04,7.391020000000000261e-05,5.805530000000000369e-04,5.851429999999999913e-04,8.273999999999999488e+01
4.898979591836734471e+04,7.349299999999999583e-05,5.940239999999999626e-04,5.984939999999999791e-04,8.295000000000000284e+01
5.000000000000000000e+04,7.283730000000000141e-05,6.074939999999999811e-04,6.118449999999999670e-04,8.315999999999999659e+01
