Frecuencia,X,Y,R,Theta
5.000000000000000000e+02,2.267670000000000059e-04,1.579530000000000063e-06,2.268260000000000133e-04,3.840000000000000080e-01
1.510204081632653015e+03,2.262599999999999919e-04,3.516689999999999867e-06,2.263199999999999880e-04,8.880000000000000115e-01
2.520408163265306030e+03,2.250979999999999919e-04,6.228710000000000034e-06,2.251870000000000109e-04,1.584000000000000075e+00
3.530612244897959044e+03,2.237270000000000079e-04,8.404309999999999160e-06,2.239060000000000074e-04,2.160000000000000142e+00
4.540816326530612059e+03,2.219690000000000020e-04,1.126530000000000038e-05,2.222670000000000049e-04,2.910000000000000142e+00
5.551020408163265529e+03,2.192270000000000069e-04,1.424559999999999961e-05,2.197040000000000093e-04,3.725999999999999979e+00
6.561224489795918089e+03,2.160680000000000055e-04,1.791129999999999909e-05,2.168129999999999992e-04,4.746000000000000441e+00
7.571428571428570649e+03,2.129680000000000115e-04,2.175579999999999929e-05,2.140710000000000041e-04,5.838000000000000078e+00
8.581632653061224119e+03,2.096599999999999950e-04,2.592809999999999999e-05,2.112700000000000016e-04,7.049999999999999822e+00
9.591836734693877588e+03,2.061440000000000104e-04,3.036869999999999945e-05,2.083490000000000071e-04,8.381999999999999673e+00
1.060204081632653106e+04,2.025080000000000066e-04,3.525639999999999672e-05,2.055480000000000046e-04,9.875999999999999446e+00
1.161224489795918271e+04,1.987229999999999878e-04,4.038240000000000151e-05,2.027759999999999979e-04,1.149000000000000021e+01
1.262244897959183618e+04,1.949979999999999921e-04,4.580640000000000243e-05,2.003019999999999942e-04,1.322400000000000020e+01
1.363265306122448965e+04,1.910340000000000009e-04,5.140920000000000239e-05,1.978290000000000061e-04,1.506000000000000050e+01
1.464285714285714130e+04,1.873680000000000126e-04,5.742930000000000257e-05,1.959510000000000082e-04,1.703999999999999915e+01
1.565306122448979477e+04,1.833150000000000025e-04,6.356880000000000028e-05,1.940140000000000029e-04,1.912800000000000011e+01
1.666326530612244824e+04,1.796199999999999913e-04,7.006569999999999563e-05,1.927920000000000068e-04,2.131200000000000117e+01
1.767346938775509989e+04,1.759839999999999874e-04,7.686070000000000087e-05,1.920470000000000131e-04,2.359199999999999875e+01
1.868367346938775518e+04,1.721989999999999957e-04,8.374500000000000542e-05,1.914809999999999917e-04,2.593199999999999861e+01
1.969387755102040683e+04,1.682950000000000006e-04,9.089750000000000173e-05,1.913019999999999922e-04,2.836799999999999855e+01
2.070408163265306212e+04,1.645990000000000007e-04,9.831829999999999682e-05,1.917189999999999986e-04,3.085200000000000031e+01
2.171428571428571377e+04,1.606059999999999866e-04,1.060669999999999994e-04,1.924940000000000039e-04,3.344400000000000261e+01
2.272448979591836542e+04,1.567019999999999915e-04,1.141429999999999946e-04,1.938649999999999879e-04,3.606600000000000250e+01
2.373469387755102071e+04,1.530950000000000106e-04,1.226669999999999963e-04,1.961900000000000037e-04,3.870000000000000284e+01
2.474489795918367236e+04,1.497579999999999983e-04,1.314289999999999914e-04,1.992589999999999975e-04,4.126800000000000068e+01
2.575510204081632401e+04,1.467480000000000119e-04,1.403099999999999898e-04,2.030140000000000048e-04,4.371000000000000085e+01
2.676530612244897929e+04,1.440950000000000087e-04,1.490420000000000004e-04,2.073359999999999949e-04,4.596600000000000108e+01
2.777551020408163095e+04,1.414730000000000057e-04,1.577150000000000036e-04,2.118660000000000074e-04,4.810199999999999676e+01
2.878571428571428260e+04,1.389390000000000059e-04,1.664170000000000026e-04,2.167829999999999876e-04,5.014200000000000301e+01
2.979591836734693788e+04,1.364960000000000023e-04,1.752679999999999896e-04,2.221470000000000129e-04,5.208599999999999852e+01
3.080612244897958954e+04,1.339919999999999870e-04,1.840599999999999962e-04,2.276609999999999875e-04,5.395199999999999818e+01
3.181632653061224482e+04,1.316970000000000098e-04,1.927329999999999994e-04,2.334129999999999961e-04,5.564999999999999858e+01
3.282653061224489647e+04,1.294319999999999900e-04,2.017029999999999897e-04,2.396409999999999914e-04,5.730599999999999739e+01
3.383673469387755176e+04,1.272570000000000049e-04,2.107029999999999916e-04,2.461690000000000210e-04,5.886599999999999966e+01
3.484693877551019978e+04,1.251710000000000116e-04,2.197930000000000012e-04,2.529639999999999992e-04,6.033599999999999852e+01
3.585714285714285506e+04,1.230550000000000068e-04,2.288229999999999876e-04,2.598190000000000005e-04,6.172200000000000131e+01
3.686734693877551035e+04,1.209979999999999959e-04,2.379129999999999971e-04,2.669109999999999929e-04,6.303600000000000136e+01
3.787755102040815837e+04,1.192400000000000035e-04,2.469440000000000263e-04,2.742430000000000236e-04,6.421800000000000352e+01
3.888775510204081365e+04,1.175710000000000031e-04,2.561829999999999967e-04,2.818720000000000145e-04,6.534000000000000341e+01
3.989795918367346894e+04,1.158119999999999950e-04,2.653019999999999749e-04,2.894719999999999824e-04,6.641400000000000148e+01
4.090816326530612423e+04,1.142330000000000022e-04,2.744220000000000231e-04,2.972499999999999882e-04,6.739799999999999613e+01
4.191836734693877224e+04,1.126529999999999936e-04,2.835709999999999858e-04,3.051479999999999861e-04,6.833400000000000318e+01
4.292857142857142753e+04,1.111930000000000042e-04,2.928389999999999791e-04,3.132540000000000064e-04,6.920399999999999352e+01
4.393877551020408282e+04,1.097619999999999970e-04,3.020480000000000192e-04,3.213600000000000267e-04,7.002599999999999625e+01
4.494897959183673083e+04,1.083920000000000017e-04,3.112869999999999895e-04,3.296160000000000236e-04,7.079999999999999716e+01
4.595918367346938612e+04,1.070210000000000041e-04,3.204959999999999753e-04,3.379009999999999891e-04,7.153199999999999648e+01
4.696938775510204141e+04,1.058580000000000019e-04,3.297050000000000154e-04,3.462750000000000008e-04,7.219799999999999329e+01
4.797959183673468942e+04,1.045769999999999984e-04,3.388840000000000168e-04,3.546490000000000124e-04,7.285200000000000387e+01
4.898979591836734471e+04,1.036229999999999937e-04,3.480329999999999795e-04,3.631430000000000161e-04,7.342199999999999704e+01
5.000000000000000000e+04,1.026400000000000066e-04,3.571830000000000122e-04,3.716370000000000198e-04,7.396200000000000330e+01
